wavenumber,intensity
450.0,0.02009839345118712
451.0,0.013160061335426425
452.0,0.008596884678982461
453.0,0.00640886348185492
454.0,0.006595997744044003
455.0,0.009158287465549659
456.0,0.014524422007759712
457.0,0.022470501768383205
458.0,0.03306280468312848
459.0,0.04469279572137248
460.0,0.05596808652347757
461.0,0.07116844539286878
462.0,0.09050789609366713
463.0,0.11336973213440311
464.0,0.13175360827815027
465.0,0.1430128128093583
466.0,0.1546184716781912
467.0,0.16421595902503952
468.0,0.17214549467293344
469.0,0.17434755838242835
470.0,0.1696735169324933
471.0,0.16064617232654757
472.0,0.1455688430223998
473.0,0.13260927722703547
474.0,0.11727947909015057
475.0,0.09436726730908968
476.0,0.07161530124029723
477.0,0.05214656482425708
478.0,0.036107212548637614
479.0,0.021275082973359588
480.0,0.01576711375132904
481.0,0.010741151228719131
482.0,0.008685389951767106
483.0,0.007889732818926852
484.0,0.010551275525383786
485.0,0.01259932306504584
486.0,0.010036405611821998
487.0,0.008549383965102273
488.0,0.007677146488518675
489.0,0.003573568581932204
490.0,0.003238470012539931
491.0,0.003132052870943404
492.0,0.005712814764372902
493.0,0.0042250729428915425
494.0,0.002764891464321373
495.0,0.006561680805682401
496.0,0.009905859241270482
497.0,0.012414276249217083
498.0,0.012243094369789646
499.0,0.009848106396604515
500.0,0.00817097536942654
501.0,0.008033853828994946
502.0,0.00996361077757245
503.0,0.00961708536514079
504.0,0.007179655883985591
505.0,0.005519717759563719
506.0,0.009258957376882981
507.0,0.012080296669583402
508.0,0.014109791659722459
509.0,0.014121047953084586
510.0,0.011400382442767065
511.0,0.01111655206368096
512.0,0.012205958033313665
513.0,0.012116607442469514
514.0,0.01054873616410132
515.0,0.012134879687749175
516.0,0.012977464346493866
517.0,0.012668752375353837
518.0,0.014845604667063358
519.0,0.019698785088112326
520.0,0.028812706926697587
521.0,0.035095385387264276
522.0,0.04578747001097405
523.0,0.058851649904204315
524.0,0.06905036605300639
525.0,0.07823356674418062
526.0,0.08477561369832004
527.0,0.08850094821597541
528.0,0.08535699834966834
529.0,0.0813891020404681
530.0,0.076195818098411
531.0,0.06710721302552364
532.0,0.05614375031436755
533.0,0.04611084461529219
534.0,0.038327914864428096
535.0,0.03201059235651589
536.0,0.024098618024382505
537.0,0.018246208964756858
538.0,0.013030266868113451
539.0,0.0098170263849605
540.0,0.006765870958165884
541.0,0.009467324403462391
542.0,0.007892387568918366
543.0,0.007080363609330679
544.0,0.006803364370308202
545.0,0.010103235965894734
546.0,0.012371076710918017
547.0,0.012959004287792
548.0,0.012999050039909683
549.0,0.010803467476557351
550.0,0.010348178414675708
551.0,0.009005363322223717
552.0,0.008819915782199622
553.0,0.007397888865194197
554.0,0.004013450793996436
555.0,0.0019233574873437076
556.0,0.00038295313709441346
557.0,0.0020687081245130768
558.0,0.0032216961873293014
559.0,0.00548876535751441
560.0,0.0073542098451863285
561.0,0.010140830748192824
562.0,0.01472767008518607
563.0,0.017672882618939706
564.0,0.01838607284919259
565.0,0.016418722570008263
566.0,0.01241861946258982
567.0,0.008811598657415085
568.0,0.006552283114847817
569.0,0.008213706853970118
570.0,0.006469740453353387
571.0,0.00737339165762384
572.0,0.008010612533473302
573.0,0.008800724173966433
574.0,0.01098156891055882
575.0,0.01156933018007248
576.0,0.012639342072745193
577.0,0.012285872767934969
578.0,0.0120640467991139
579.0,0.011558659250360136
580.0,0.013750698742281497
581.0,0.01329851604054178
582.0,0.011398809169569198
583.0,0.012679898761016689
584.0,0.012172849241798232
585.0,0.014018518680052367
586.0,0.01542397165088011
587.0,0.016413980117798464
588.0,0.017163458028265455
589.0,0.01760635724796288
590.0,0.016931525014371868
591.0,0.015211477804085695
592.0,0.017256461421086552
593.0,0.017301405679410714
594.0,0.0205095229863705
595.0,0.02336571583218707
596.0,0.0273835891734148
597.0,0.03084997612368841
598.0,0.0348621293011541
599.0,0.038614869519401726
600.0,0.0402405019703603
601.0,0.04618748134766808
602.0,0.04998543096166056
603.0,0.0550341274197471
604.0,0.06025546050517133
605.0,0.06152597137657912
606.0,0.0639259835180168
607.0,0.06012900857273008
608.0,0.05507641110332185
609.0,0.05085570215454759
610.0,0.03939488254565184
611.0,0.030249204652590508
612.0,0.029207000436739853
613.0,0.03168847230622774
614.0,0.036078306898205945
615.0,0.051399104894712486
616.0,0.07230948614482953
617.0,0.09673867513158013
618.0,0.11969689712902322
619.0,0.1459129610417926
620.0,0.16650738795827652
621.0,0.1824591703223166
622.0,0.18446450375388185
623.0,0.18033132627571585
624.0,0.1639145236658736
625.0,0.1395290888314562
626.0,0.11243055516856644
627.0,0.08488091623531077
628.0,0.05745252363753615
629.0,0.03532726687177978
630.0,0.02278590252652747
631.0,0.017577783921427805
632.0,0.016927102451312265
633.0,0.016887892005089965
634.0,0.01494534889364866
635.0,0.015500885903810489
636.0,0.01390491675627301
637.0,0.01306476219372924
638.0,0.009601068513667073
639.0,0.0041553378868466155
640.0,0.002147167021257429
641.0,0.002737406609781939
642.0,0.003844242212597628
643.0,0.003992042514523083
644.0,0.0038373656045382837
645.0,0.0037207606361536207
646.0,0.005726415431981793
647.0,0.006132859043378486
648.0,0.006275979709811395
649.0,0.006425242404425686
650.0,0.006353473699393097
651.0,0.005611342674014721
652.0,0.007280145127273909
653.0,0.009906024934280512
654.0,0.012783844439304744
655.0,0.014000108704968511
656.0,0.014357186740992407
657.0,0.015098764357731305
658.0,0.016733094555856868
659.0,0.015679824267219547
660.0,0.018873027858168044
661.0,0.0197921554275673
662.0,0.020144069293121968
663.0,0.020217759242402048
664.0,0.023011516128311607
665.0,0.02211019337587999
666.0,0.020832399948348145
667.0,0.0189310305770905
668.0,0.017842981239702953
669.0,0.01766543028361012
670.0,0.017919043694884156
671.0,0.01974939351643128
672.0,0.02207428473759426
673.0,0.02445031705515906
674.0,0.02811161578502053
675.0,0.03085212389014
676.0,0.03233993062601447
677.0,0.032498304299145894
678.0,0.035358916424905545
679.0,0.037963971735726555
680.0,0.03865938401081519
681.0,0.04019773452219202
682.0,0.040454887035763894
683.0,0.041829349031546
684.0,0.0416478695698088
685.0,0.03982781747160608
686.0,0.03734598439095028
687.0,0.031657047373115324
688.0,0.02839350954338347
689.0,0.023708285165266577
690.0,0.0208301753296214
691.0,0.01775241883271807
692.0,0.016990270043404143
693.0,0.016595605893998618
694.0,0.018818659928986167
695.0,0.02311922085118536
696.0,0.02341606364521944
697.0,0.023167360102628137
698.0,0.024373366707287042
699.0,0.023955251896301703
700.0,0.025902503090922988
701.0,0.026936643235176947
702.0,0.028600334104664827
703.0,0.026331853926727777
704.0,0.024154911284179993
705.0,0.02060320454610369
706.0,0.018630680213949345
707.0,0.017167554707065446
708.0,0.010174332036127623
709.0,0.006455027943193281
710.0,0.0028515006067373885
711.0,0.0021432952864611143
712.0,0.003429241607319805
713.0,0.003855385746490698
714.0,0.0035626512378326225
715.0,0.0027034475637484276
716.0,0.003099785762592045
717.0,0.0040142128559419
718.0,0.009468174131230377
719.0,0.012103832802712561
720.0,0.012520489426801682
721.0,0.01228027513793724
722.0,0.011658225702281083
723.0,0.013689750410291128
724.0,0.012482127249368567
725.0,0.009065470880098365
726.0,0.004546254888302926
727.0,0.0035102735289282263
728.0,0.003260390875477819
729.0,0.004671755983285155
730.0,0.005816398014079604
731.0,0.0064029655458770615
732.0,0.00815082464943162
733.0,0.009830320915896138
734.0,0.011423768956004008
735.0,0.01648904355808707
736.0,0.019154692593913274
737.0,0.023221749890997078
738.0,0.03199263402623422
739.0,0.04413484765110558
740.0,0.0599224581093445
741.0,0.07745384561421961
742.0,0.09130534186949302
743.0,0.10660582728591285
744.0,0.11935041121892165
745.0,0.12437988646720916
746.0,0.1286471952816791
747.0,0.12704552594239268
748.0,0.11844907815519672
749.0,0.10958864584983545
750.0,0.09847105957654635
751.0,0.08794320460460589
752.0,0.07525094943164405
753.0,0.061747313871337396
754.0,0.05020544554296423
755.0,0.04146819795162464
756.0,0.03230168601052538
757.0,0.02348754475856352
758.0,0.01981379609454626
759.0,0.017452595793167734
760.0,0.01750559697336593
761.0,0.02050404884123739
762.0,0.022349031724839027
763.0,0.024321051704453648
764.0,0.02247223652235795
765.0,0.02218202562541124
766.0,0.02187392361241562
767.0,0.01944644826363724
768.0,0.016855471317885867
769.0,0.015496909536981927
770.0,0.017102624710951916
771.0,0.01868260425736031
772.0,0.02119000723688969
773.0,0.024602510303093413
774.0,0.02761085517203664
775.0,0.025836651841010208
776.0,0.024725305461794814
777.0,0.028282294491127468
778.0,0.026796352494338264
779.0,0.02543515631605466
780.0,0.024370880506860912
781.0,0.027501990594516832
782.0,0.03191353187823467
783.0,0.033270047002098645
784.0,0.03397677440783478
785.0,0.03392226894016547
786.0,0.029661108378638994
787.0,0.026301174303378375
788.0,0.024425892724208313
789.0,0.02059193617440902
790.0,0.01573121208529216
791.0,0.01095063772964102
792.0,0.01171990428178053
793.0,0.014807650078454054
794.0,0.014062396281409628
795.0,0.014125948223961042
796.0,0.015474431019466203
797.0,0.014399659600189414
798.0,0.013027843065933277
799.0,0.011456578099429572
800.0,0.012046288991097248
801.0,0.01295250085905633
802.0,0.012606898449892543
803.0,0.01399359852707839
804.0,0.01757387289121844
805.0,0.018598586526132787
806.0,0.021992963382094173
807.0,0.02888698632593639
808.0,0.034200972078400255
809.0,0.0435467948605666
810.0,0.05513513177444133
811.0,0.06875255810133113
812.0,0.08364183697575073
813.0,0.09932016412467659
814.0,0.11268006193864442
815.0,0.12229633296430446
816.0,0.13238857018021125
817.0,0.1381443808434664
818.0,0.1406129174429384
819.0,0.1398428293340817
820.0,0.13749775938942926
821.0,0.13494452675154528
822.0,0.12648601487363056
823.0,0.12148908578091706
824.0,0.11905135102661409
825.0,0.11956160433307207
826.0,0.12230198804201303
827.0,0.12578963282904454
828.0,0.13228918153923855
829.0,0.1398944876366253
830.0,0.14692533170801494
831.0,0.1499963971363504
832.0,0.15106690038708825
833.0,0.14677371358950056
834.0,0.1410314805472792
835.0,0.13546998522855916
836.0,0.1242108108368483
837.0,0.1094257451862815
838.0,0.09159359636203479
839.0,0.07410428124934827
840.0,0.061884482227764916
841.0,0.05417497103187713
842.0,0.04608686231349799
843.0,0.04209016649848823
844.0,0.044912996769095576
845.0,0.05212176051488846
846.0,0.06664417866882184
847.0,0.07821810764361989
848.0,0.08797878409455355
849.0,0.09916186361394323
850.0,0.10958018037016808
851.0,0.11672056141147005
852.0,0.12295979828072597
853.0,0.12181303745799336
854.0,0.11516459295213408
855.0,0.1045199803396385
856.0,0.09045186019246958
857.0,0.07734265832395663
858.0,0.06404321270990952
859.0,0.0510518626289275
860.0,0.04230854263919214
861.0,0.03690379229510522
862.0,0.032414003241713944
863.0,0.029423187328426616
864.0,0.030714645195542005
865.0,0.029148473723516397
866.0,0.027724703240016177
867.0,0.025545980538930563
868.0,0.02042225243447749
869.0,0.01678956937665018
870.0,0.012453110636067351
871.0,0.009181730577362395
872.0,0.00700296145517895
873.0,0.004297757673158812
874.0,0.005195625827210097
875.0,0.004398119117724643
876.0,0.007825876548448267
877.0,0.010079091728029855
878.0,0.011211998576116178
879.0,0.013002263829750435
880.0,0.01143152377268622
881.0,0.011308938907084922
882.0,0.011569552563970506
883.0,0.01176419966734737
884.0,0.011639539122211266
885.0,0.011560749542344071
886.0,0.011232405631469137
887.0,0.012034297189662316
888.0,0.013887872688219075
889.0,0.012241237505486382
890.0,0.01339689298842314
891.0,0.015881226188442784
892.0,0.01577242645006096
893.0,0.015612550680668613
894.0,0.017013858883606774
895.0,0.0164402768154666
896.0,0.01454645397454359
897.0,0.0121705699675417
898.0,0.01093682323314296
899.0,0.009530150050974484
900.0,0.012044796204060968
901.0,0.01524484928332976
902.0,0.018879095067296424
903.0,0.019290230788652236
904.0,0.017170945492175498
905.0,0.016872527777622423
906.0,0.01948288497355758
907.0,0.018654429797505714
908.0,0.021411991237023965
909.0,0.026042120913315762
910.0,0.03146744487219901
911.0,0.03469747233815998
912.0,0.03983952684558362
913.0,0.04038736350413622
914.0,0.04059385934163245
915.0,0.036861825344094316
916.0,0.03053279166967311
917.0,0.02741238213481783
918.0,0.019899298209691704
919.0,0.013351272154250823
920.0,0.011449124918309348
921.0,0.008004765828210901
922.0,0.004983212379540041
923.0,0.0008742499607193125
924.0,0.0
925.0,0.0006121180531519897
926.0,0.0029942128120492312
927.0,0.006234890895342112
928.0,0.007972325217464264
929.0,0.009274682704062365
930.0,0.007409953873197334
931.0,0.007298981808493324
932.0,0.005773386654835938
933.0,0.004731911954672231
934.0,0.00502862295140909
935.0,0.006375689279274022
936.0,0.006375115681527757
937.0,0.007560025301479428
938.0,0.007764740446745047
939.0,0.010061317414065647
940.0,0.01075241533262621
941.0,0.012144802492022275
942.0,0.01778347643826565
943.0,0.02291460516944189
944.0,0.03008506695819706
945.0,0.0385655213394516
946.0,0.048076466793454335
947.0,0.053691062799792875
948.0,0.059767623709655236
949.0,0.063671106451333
950.0,0.06480478108331222
951.0,0.06256371937751229
952.0,0.061304840859767444
953.0,0.061044889060452016
954.0,0.05852140097891784
955.0,0.05190705242506876
956.0,0.04077636275823256
957.0,0.03026406262909465
958.0,0.02209115397400491
959.0,0.01617276191779294
960.0,0.011759307549524178
961.0,0.00989564731970993
962.0,0.007056873338882193
963.0,0.006244049176506448
964.0,0.007476997155583279
965.0,0.009402124709345974
966.0,0.009507956857224583
967.0,0.006647329017525682
968.0,0.005423250437808403
969.0,0.006199475940425502
970.0,0.006585528844915207
971.0,0.006115911666808352
972.0,0.006776678801099407
973.0,0.008175377568348558
974.0,0.00915010450147072
975.0,0.010639376608583296
976.0,0.014230513891318564
977.0,0.01594972854785737
978.0,0.015848072886883578
979.0,0.01978999612267185
980.0,0.02234061203636432
981.0,0.027262165604037086
982.0,0.030407161485724216
983.0,0.03641871910139789
984.0,0.040937902499138305
985.0,0.04819920550611702
986.0,0.05351441845712856
987.0,0.06454798306744503
988.0,0.07290101171272936
989.0,0.08174132189912905
990.0,0.08864294939195518
991.0,0.10547999066749475
992.0,0.11867160044192543
993.0,0.130373512778232
994.0,0.17046354102675346
995.0,0.21106490225756616
996.0,0.2847650137845268
997.0,0.3776564612097264
998.0,0.4900018475904757
999.0,0.6112673109877947
1000.0,0.7254303704591174
1001.0,0.8436265917336507
1002.0,0.9247282710913147
1003.0,0.9870603472841086
1004.0,1.0
1005.0,0.9752323660412033
1006.0,0.9213065956503926
1007.0,0.8218668619522561
1008.0,0.7167734996213674
1009.0,0.5880055742930221
1010.0,0.45443377234676685
1011.0,0.32731362759952826
1012.0,0.21995247427136372
1013.0,0.13790863088657368
1014.0,0.07596439737090108
1015.0,0.05289158801588362
1016.0,0.028816261797695142
1017.0,0.023774861650442104
1018.0,0.04096181159788382
1019.0,0.057077758361011234
1020.0,0.07043546086632607
1021.0,0.08175859748620301
1022.0,0.09238128206357847
1023.0,0.10116037725854933
1024.0,0.10577653385756054
1025.0,0.11206569701933858
1026.0,0.11782689706824062
1027.0,0.1249517965254376
1028.0,0.13471474981077952
1029.0,0.14797509187001398
1030.0,0.16373392491584035
1031.0,0.17417153444691347
1032.0,0.18701556430755142
1033.0,0.19645553021483678
1034.0,0.2061127724938528
1035.0,0.21079681722505866
1036.0,0.2129596462368935
1037.0,0.20468262313546648
1038.0,0.19004658496592428
1039.0,0.17210960060720884
1040.0,0.14776854981405346
1041.0,0.12236694853652474
1042.0,0.09602985313415072
1043.0,0.06958215074927561
1044.0,0.050436327551452075
1045.0,0.03410833163544164
1046.0,0.023465594112562632
1047.0,0.01584637581247614
1048.0,0.012506242616543893
1049.0,0.006170764771781105
1050.0,0.0077255959220641325
1051.0,0.007455408329730254
1052.0,0.00838541923277636
1053.0,0.012913412142629326
1054.0,0.01525896821005392
1055.0,0.01624025744175184
1056.0,0.015160637665048658
1057.0,0.01273564662551968
1058.0,0.008781600896991457
1059.0,0.007914205693089153
1060.0,0.004796134306972037
1061.0,0.0046524384965601516
1062.0,0.003750639345275097
1063.0,0.0044554527829289235
1064.0,0.005934800273476135
1065.0,0.005924244709627673
1066.0,0.00432450473919687
1067.0,0.005019853673789575
1068.0,0.0036069644461262144
1069.0,0.006011801654226885
1070.0,0.004486628809414222
1071.0,0.005213257653652826
1072.0,0.006709283994959108
1073.0,0.0075091713828680995
1074.0,0.009047366295795055
1075.0,0.01073502637214514
1076.0,0.010807538764633433
1077.0,0.01098283641365264
1078.0,0.011643108792358652
1079.0,0.010583914859837484
1080.0,0.007638433149959357
1081.0,0.006700156550354671
1082.0,0.005098669734623863
1083.0,0.00372128529339325
1084.0,0.0034316139721920066
1085.0,0.001247707548475171
1086.0,0.001411227452976238
1087.0,0.0024955805280222386
1088.0,0.006112094868681487
1089.0,0.007228013661915772
1090.0,0.00911131241109015
1091.0,0.008795442152015559
1092.0,0.008795341970287102
1093.0,0.00857792545247641
1094.0,0.007980146493189497
1095.0,0.008515345841699652
1096.0,0.007765771197469111
1097.0,0.0064256407109872
1098.0,0.007198498518260251
1099.0,0.006819579235825341
1100.0,0.00854512866025574
1101.0,0.007950292248611516
1102.0,0.008923219186565844
1103.0,0.008811286590091326
1104.0,0.00775159349574285
1105.0,0.009607249697478833
1106.0,0.010718662426624458
1107.0,0.011291007980477849
1108.0,0.009899112070265158
1109.0,0.008980908303613313
1110.0,0.008622603335112344
1111.0,0.007065970970234448
1112.0,0.0070011410714039485
1113.0,0.004194731213831425
1114.0,0.003201349741690151
1115.0,0.00229137681048746
1116.0,0.0027173268779632593
1117.0,0.005673251805311808
1118.0,0.0069853934324192735
1119.0,0.00907662563907794
1120.0,0.013339280281110592
1121.0,0.01700780531743649
1122.0,0.019897135528921993
1123.0,0.02073524581443632
1124.0,0.018773563696700215
1125.0,0.016187767132685577
1126.0,0.014579128396652543
1127.0,0.012124141457883274
1128.0,0.009662085072458877
1129.0,0.00868191275573529
1130.0,0.007167211139832973
1131.0,0.008558811134225174
1132.0,0.009933643882124508
1133.0,0.008237905630057819
1134.0,0.007119451725540356
1135.0,0.006255805002183444
1136.0,0.006548165442345001
1137.0,0.00471027292663989
1138.0,0.004252075923267465
1139.0,0.004961427470315159
1140.0,0.007046233002507803
1141.0,0.007129722720880237
1142.0,0.009453206283846079
1143.0,0.01029340859749997
1144.0,0.009190246654369063
1145.0,0.010126083870298919
1146.0,0.01152303490440944
1147.0,0.015467935684633307
1148.0,0.020174721673631494
1149.0,0.02575512169837752
1150.0,0.03447454715372887
1151.0,0.042801428464057774
1152.0,0.052351470422114854
1153.0,0.05976360074973158
1154.0,0.06575735989239305
1155.0,0.06937124824314837
1156.0,0.0723735403622224
1157.0,0.07780380233418634
1158.0,0.07840161695328865
1159.0,0.08000252196474986
1160.0,0.0789201830398419
1161.0,0.07909268068678971
1162.0,0.07654783892989561
1163.0,0.07232501668564927
1164.0,0.06918435115080565
1165.0,0.06538550685395492
1166.0,0.05927018015262858
1167.0,0.05413631658314483
1168.0,0.05063261948383817
1169.0,0.0470278015594004
1170.0,0.04086783793809198
1171.0,0.035525377561177615
