wavenumber,intensity
450.0,0.01440290401629349
451.0,0.02028564347955385
452.0,0.025189649663601904
453.0,0.029114922568438027
454.0,0.03206146219406187
455.0,0.03402926854047367
456.0,0.03523374627260949
457.0,0.035791650475931296
458.0,0.0334598278888948
459.0,0.030586690570836454
460.0,0.029201371599636938
461.0,0.026707521819147748
462.0,0.025295116743469834
463.0,0.024846023316690502
464.0,0.02647831241329118
465.0,0.028336169700361107
466.0,0.033359685505690156
467.0,0.03627732821269114
468.0,0.03848412327618351
469.0,0.03985656295432194
470.0,0.04251110715246396
471.0,0.04365207910642514
472.0,0.0451257486483844
473.0,0.046217975958140325
474.0,0.045590225313149775
475.0,0.04182231204222848
476.0,0.03702224718715731
477.0,0.03470693924467752
478.0,0.02992496032546829
479.0,0.024318635198237765
480.0,0.02210522005148298
481.0,0.019541563237355935
482.0,0.016488368565395137
483.0,0.01652219684948283
484.0,0.01941075220433375
485.0,0.026086070821444887
486.0,0.03264245757115128
487.0,0.040943086961506454
488.0,0.051581568530101554
489.0,0.0577426925222638
490.0,0.06521272707720455
491.0,0.0679507922202788
492.0,0.06949887619750628
493.0,0.06782660838075563
494.0,0.06427777862476505
495.0,0.05726393627769799
496.0,0.05003016969282875
497.0,0.0437364656850025
498.0,0.03656485979123874
499.0,0.030512726843892377
500.0,0.025309478816552176
501.0,0.01755149286958541
502.0,0.012050777557880022
503.0,0.006367080901844089
504.0,0.005618090637873278
505.0,0.00523864291720913
506.0,0.0066148708205069785
507.0,0.0069282766720169045
508.0,0.008573184771975583
509.0,0.01107892185999441
510.0,0.01632090588602204
511.0,0.018520160376163382
512.0,0.020423107292050283
513.0,0.019668934606114182
514.0,0.01925168493130463
515.0,0.016156796043412434
516.0,0.01706076281773496
517.0,0.016082018341508214
518.0,0.01676078597840555
519.0,0.019849116037803777
520.0,0.02919534625689453
521.0,0.038515946611789975
522.0,0.04802353882020383
523.0,0.05876127128843518
524.0,0.07068701707805601
525.0,0.07761813978752746
526.0,0.07997059576450895
527.0,0.07986371861135269
528.0,0.07586927020809962
529.0,0.07208958134711153
530.0,0.067103636072768
531.0,0.062262907359316166
532.0,0.0570415941597097
533.0,0.04929337428397553
534.0,0.04140724143071283
535.0,0.03522525276349169
536.0,0.029566129449665173
537.0,0.022479135011870256
538.0,0.019663761716313323
539.0,0.017742731788114103
540.0,0.017856628826220494
541.0,0.019324595974850953
542.0,0.02115666711078984
543.0,0.024550681864328634
544.0,0.022258528919632568
545.0,0.017787358942118837
546.0,0.013816102682912222
547.0,0.00998558397719041
548.0,0.007031519855302371
549.0,0.00542544498845874
550.0,0.004620559964716075
551.0,0.002764444009787972
552.0,0.0017077576153417793
553.0,0.0022007580665890326
554.0,0.003355251473434411
555.0,0.00360060788054195
556.0,0.001598522647076311
557.0,0.0035094064411019853
558.0,0.004448679610562221
559.0,0.007058486787551141
560.0,0.009530244474214697
561.0,0.0100350083106879
562.0,0.011209079834146795
563.0,0.008643097101222795
564.0,0.010507636973058643
565.0,0.010188461336878216
566.0,0.012578246763643736
567.0,0.017480885335213255
568.0,0.02268363168934614
569.0,0.026766592063669544
570.0,0.031769965606555574
571.0,0.03327771245711504
572.0,0.03427507683216485
573.0,0.03630076078046632
574.0,0.034080699195368575
575.0,0.03309198536463727
576.0,0.030356988386210718
577.0,0.026467549457984386
578.0,0.02441791003196874
579.0,0.0219176826598097
580.0,0.019483412462231356
581.0,0.01838338939651604
582.0,0.01810111766085527
583.0,0.01683128401743115
584.0,0.017413481812606258
585.0,0.017162087433704922
586.0,0.015313951337307287
587.0,0.012579375686346442
588.0,0.010134331775802717
589.0,0.008153786013117104
590.0,0.007695779341053075
591.0,0.008024587519964663
592.0,0.009571808039119303
593.0,0.010464257094953532
594.0,0.009972782940460808
595.0,0.008945294586727832
596.0,0.008949958112077928
597.0,0.007253631513234407
598.0,0.0049031902145255536
599.0,0.002156564450902956
600.0,0.0019383632229398597
601.0,0.00238290691685198
602.0,0.0050124620063837074
603.0,0.00890064600927543
604.0,0.011739159967091866
605.0,0.013454920582215714
606.0,0.015311150704245248
607.0,0.015383250564543921
608.0,0.014762209154752076
609.0,0.013278108715543626
610.0,0.01149062859138178
611.0,0.0069413709211288204
612.0,0.005336610079920739
613.0,0.00560987218526517
614.0,0.0065352323278953135
615.0,0.010420376821461352
616.0,0.011262317252077724
617.0,0.012624064890586562
618.0,0.013132818613309572
619.0,0.012340534294919084
620.0,0.013848284249752405
621.0,0.012816717746710313
622.0,0.011838205048494725
623.0,0.012215665959489846
624.0,0.014781723345741508
625.0,0.017728411148769812
626.0,0.020247434143140057
627.0,0.020799878947445883
628.0,0.018862156916898
629.0,0.019451172008348932
630.0,0.018778640218400092
631.0,0.02256548111155005
632.0,0.028707428550161108
633.0,0.044075656066261466
634.0,0.06733383580157981
635.0,0.09478067462941576
636.0,0.1257310155957247
637.0,0.1562601525664008
638.0,0.18199130100227925
639.0,0.19739988231194439
640.0,0.2059353816453993
641.0,0.20774947480713285
642.0,0.19817046234521637
643.0,0.17892217257958656
644.0,0.16006642942586624
645.0,0.1425977674311678
646.0,0.1225527896047069
647.0,0.10550532661713118
648.0,0.09323071324711327
649.0,0.07986523155467144
650.0,0.07155405761383238
651.0,0.06379519956065258
652.0,0.06041221035046942
653.0,0.053788074043746095
654.0,0.04686251827077985
655.0,0.039921795820263825
656.0,0.03475642618958324
657.0,0.028948162958280347
658.0,0.02692195089267711
659.0,0.027045351256474844
660.0,0.023851057297179595
661.0,0.022085551992096043
662.0,0.0199853961860412
663.0,0.017002666154929222
664.0,0.015822003225580864
665.0,0.01295106405429505
666.0,0.010144029986282582
667.0,0.006818767654284597
668.0,0.003645798202525928
669.0,0.0037791457736166354
670.0,0.0064411472993530445
671.0,0.0051597208879457365
672.0,0.005605014687314895
673.0,0.003911865199772826
674.0,0.0034294188361279295
675.0,0.003957527780012549
676.0,0.005714163728018699
677.0,0.006445832702762037
678.0,0.007321453766474338
679.0,0.008086173574525108
680.0,0.009825842173745769
681.0,0.01012929473821488
682.0,0.00986956335802845
683.0,0.008951798887239714
684.0,0.0078106966226757545
685.0,0.007312084231590246
686.0,0.007392081339459191
687.0,0.007759779806011032
688.0,0.009399616538475094
689.0,0.009009531842638727
690.0,0.010137699522874327
691.0,0.010499413914078805
692.0,0.008636522711949623
693.0,0.006371174123775178
694.0,0.006601369785342489
695.0,0.00818499192632259
696.0,0.011145701298859617
697.0,0.012460473186183672
698.0,0.013555990459839828
699.0,0.013621974246645258
700.0,0.013218624000367274
701.0,0.01338905487996397
702.0,0.015864062487413958
703.0,0.015110466663839322
704.0,0.01324474047045818
705.0,0.014090742827799485
706.0,0.02061465762992954
707.0,0.031045699635971265
708.0,0.040158578383979154
709.0,0.05089012552817278
710.0,0.06099886655026278
711.0,0.06942190681054168
712.0,0.0732943662007053
713.0,0.07524889063534917
714.0,0.07083206028012069
715.0,0.057554856816064495
716.0,0.0448624134411395
717.0,0.030853744175706188
718.0,0.024277262452442383
719.0,0.016791681848394878
720.0,0.009754962702363918
721.0,0.004736731745622454
722.0,0.005078715865749166
723.0,0.007473090440425153
724.0,0.008826960593546413
725.0,0.01080285110025295
726.0,0.011355846781401937
727.0,0.00997372739897819
728.0,0.010400766427242499
729.0,0.010045332887457698
730.0,0.01149569673322708
731.0,0.010884040306723441
732.0,0.011773345817900373
733.0,0.014617672780345065
734.0,0.021112268119294116
735.0,0.023570232277278603
736.0,0.025693729658082826
737.0,0.03121766050259069
738.0,0.03372897871676381
739.0,0.03403104955319655
740.0,0.03739745681049475
741.0,0.03639883184415096
742.0,0.03856833403199769
743.0,0.03675068110192922
744.0,0.03614873089944424
745.0,0.03467998114811187
746.0,0.029717643552245834
747.0,0.02524175512649926
748.0,0.02233579577446372
749.0,0.01985478759808086
750.0,0.015066685616918266
751.0,0.01027291975132926
752.0,0.010027852497364705
753.0,0.007046883641800207
754.0,0.004467398343748417
755.0,0.002227854208093653
756.0,0.002769961993358087
757.0,0.0015835535901331332
758.0,0.0018749902057118067
759.0,0.002540260763908236
760.0,0.0034782228179072805
761.0,0.004034486754556998
762.0,0.004703860779447319
763.0,0.006213489903103757
764.0,0.009047377272121017
765.0,0.0101087378662789
766.0,0.009911488188001649
767.0,0.012171565102722838
768.0,0.01163041913619393
769.0,0.010174403551254048
770.0,0.009097860156965001
771.0,0.007412708299308453
772.0,0.0034999761800257358
773.0,0.00409813425073837
774.0,0.0057597845449582534
775.0,0.006669015957404975
776.0,0.010370078082703816
777.0,0.013346916397767439
778.0,0.016625034015858915
779.0,0.01713353811039505
780.0,0.017887461918677044
781.0,0.017396079209694954
782.0,0.016783244958624394
783.0,0.014126572253117694
784.0,0.012895691045293874
785.0,0.016170593036313723
786.0,0.018712769222611905
787.0,0.025908689358781708
788.0,0.0347615124182428
789.0,0.04607961835548341
790.0,0.0580125483513793
791.0,0.07274113980375929
792.0,0.08634782984319168
793.0,0.09777754337028566
794.0,0.10449661994442423
795.0,0.11000540916064153
796.0,0.10761707565389905
797.0,0.10354989705636578
798.0,0.09586943416420966
799.0,0.08485648107209229
800.0,0.07035181669519024
801.0,0.05914305380866582
802.0,0.047288767514876776
803.0,0.037362962381568644
804.0,0.030103346249385723
805.0,0.02339267050602834
806.0,0.021910359609465496
807.0,0.021703411213315125
808.0,0.019709234907037642
809.0,0.021738287464029667
810.0,0.02226089902586041
811.0,0.025556297338160557
812.0,0.026703909048873924
813.0,0.03624548082754932
814.0,0.0369963269281179
815.0,0.043676784869219144
816.0,0.07647409604622422
817.0,0.10353687815590543
818.0,0.15796598305429416
819.0,0.22730305871154613
820.0,0.3290257781321301
821.0,0.4477389067713953
822.0,0.5715852721431903
823.0,0.6939082061862842
824.0,0.8033079276317261
825.0,0.9180851754056866
826.0,0.9808623397589492
827.0,1.0
828.0,0.9717347288683212
829.0,0.8894339202334469
830.0,0.7747685616880995
831.0,0.6439060627901796
832.0,0.5012681073361861
833.0,0.3616380423363817
834.0,0.24182845451004906
835.0,0.15516998484736985
836.0,0.11145044885049796
837.0,0.124134062958112
838.0,0.12171706562688137
839.0,0.1439834438642176
840.0,0.1741373079741322
841.0,0.20169088422384204
842.0,0.21822422662871574
843.0,0.2272414059746635
844.0,0.22658199190411493
845.0,0.22417716715415822
846.0,0.21625519727594303
847.0,0.208967167698168
848.0,0.19691141212804886
849.0,0.18662241489292491
850.0,0.17529952734377718
851.0,0.16424769856523516
852.0,0.15529397329769662
853.0,0.14532675137870862
854.0,0.13445245613786233
855.0,0.12445083530557753
856.0,0.11636799083862216
857.0,0.10965710607679009
858.0,0.1052355162627278
859.0,0.09769485368604769
860.0,0.0880145031736921
861.0,0.07818109882976018
862.0,0.06802943642193576
863.0,0.05864526119456121
864.0,0.051775338068061796
865.0,0.043258010249134525
866.0,0.03592188982734011
867.0,0.02947955177561592
868.0,0.02748714389930612
869.0,0.02719308936743998
870.0,0.02930703109638303
871.0,0.02879348799972678
872.0,0.031632931113913736
873.0,0.03370124547745888
874.0,0.03748086310195172
875.0,0.04419049601755121
876.0,0.04876298388185734
877.0,0.051451297481164046
878.0,0.05371979436909744
879.0,0.05192754939389681
880.0,0.051165784661650025
881.0,0.04669405727793235
882.0,0.04228210532853843
883.0,0.03719413028474672
884.0,0.03248625424271242
885.0,0.02790125769229808
886.0,0.0282726287821592
887.0,0.030009392127907337
888.0,0.033577939561296434
889.0,0.035008147307512956
890.0,0.038286171501571695
891.0,0.03951137756198362
892.0,0.043783304196060274
893.0,0.04785828143245046
894.0,0.049019360292272045
895.0,0.047463762082320206
896.0,0.04471776502281824
897.0,0.040974428758152964
898.0,0.039400016682849086
899.0,0.03866897369228284
900.0,0.038344564348229304
901.0,0.03440734540949308
902.0,0.029722590448597323
903.0,0.02762623812205646
904.0,0.026847258751339222
905.0,0.024632107993760654
906.0,0.020885123501286105
907.0,0.017379030546348106
908.0,0.01290650928915898
909.0,0.01109102440836748
910.0,0.012333698774251204
911.0,0.013901106298863517
912.0,0.015589255713404323
913.0,0.012845517402557115
914.0,0.00907332168943314
915.0,0.00823396957965106
916.0,0.006469270309454371
917.0,0.0043877946329035356
918.0,0.0042968257949780545
919.0,0.002568567386350794
920.0,0.0020165108191348806
921.0,0.004494303882403875
922.0,0.004507260802971156
923.0,0.0035535622163962435
924.0,0.0035943565435843515
925.0,0.002424628618492827
926.0,0.0022134412734960552
927.0,0.005334002739652984
928.0,0.009392708100299463
929.0,0.014064691848692556
930.0,0.01955679466242506
931.0,0.02196728292681227
932.0,0.02529047817455349
933.0,0.022915696409145533
934.0,0.020203151117435095
935.0,0.017424202329946476
936.0,0.015681919480726562
937.0,0.014854421827499449
938.0,0.016508151869406483
939.0,0.017962799191135994
940.0,0.019138484510935652
941.0,0.019881153550923118
942.0,0.01943603452550442
943.0,0.017992515965721628
944.0,0.015738869938903315
945.0,0.013679351577640214
946.0,0.011523260984477911
947.0,0.010071889732045994
948.0,0.007875144704017012
949.0,0.006356622577894224
950.0,0.00686067308397222
951.0,0.006502923051679951
952.0,0.004745886344523638
953.0,0.006002525428345138
954.0,0.007943433017135185
955.0,0.009001438036969692
956.0,0.0084249125834664
957.0,0.009678667147232829
958.0,0.011162055120206031
959.0,0.014141930408494648
960.0,0.014111506359402993
961.0,0.016390125308355485
962.0,0.018971133960638143
963.0,0.018879019509460516
964.0,0.02238737992270471
965.0,0.024941891921476004
966.0,0.024312509813700617
967.0,0.020475058242601856
968.0,0.016590040381366078
969.0,0.01879116656028778
970.0,0.022554472266699054
971.0,0.0238919040335215
972.0,0.025143217253095717
973.0,0.03038084604254269
974.0,0.03931705606586591
975.0,0.05277342928273367
976.0,0.06940891929103202
977.0,0.08540550104415147
978.0,0.09995444924770316
979.0,0.11355847008888154
980.0,0.12671105381993816
981.0,0.13913306123211241
982.0,0.1448773344634975
983.0,0.1445518352065995
984.0,0.14127400897672024
985.0,0.13619070365072994
986.0,0.12780676537280175
987.0,0.11686505961522624
988.0,0.10175908960259566
989.0,0.08450320605909693
990.0,0.06866214452841107
991.0,0.052219222234991265
992.0,0.04039053938520262
993.0,0.030304976646824237
994.0,0.023186079736911294
995.0,0.01934284637851651
996.0,0.019741283499720628
997.0,0.018779995892089982
998.0,0.018681277771727633
999.0,0.015700835836233985
1000.0,0.014417983048583475
1001.0,0.011179668121345123
1002.0,0.008269098601491666
1003.0,0.006308620305070361
1004.0,0.00596582511324282
1005.0,0.0027342192521257512
1006.0,0.0031569262187661597
1007.0,0.0041072911290716
1008.0,0.0024338336271459535
1009.0,0.003452702291409403
1010.0,0.0067590785043469305
1011.0,0.012271170349923656
1012.0,0.015929476776737322
1013.0,0.01912646145529531
1014.0,0.021279063326722858
1015.0,0.024896672918351872
1016.0,0.02441674201953648
1017.0,0.022141266731210942
1018.0,0.01759832489678306
1019.0,0.011666897909634892
1020.0,0.0073250626055945366
1021.0,0.006082265194012867
1022.0,0.007537354517107102
1023.0,0.0064932704822086565
1024.0,0.005773553832016496
1025.0,0.0066770963664504425
1026.0,0.007719816213517947
1027.0,0.009958884675559177
1028.0,0.013396639177857697
1029.0,0.013695823492992887
1030.0,0.015106565868466967
1031.0,0.018528930968335116
1032.0,0.020042308405712903
1033.0,0.023229407741137104
1034.0,0.02560051874581764
1035.0,0.029951509647695128
1036.0,0.032602531802083855
1037.0,0.03666484931593243
1038.0,0.04329850803602323
1039.0,0.052318546152563386
1040.0,0.058615397822415656
1041.0,0.06540890808833494
1042.0,0.07369066778413466
1043.0,0.07781285758503921
1044.0,0.077500239121256
1045.0,0.073183939845439
1046.0,0.06641405203625139
1047.0,0.05607473633432362
1048.0,0.042776934849998526
1049.0,0.03367533911081297
1050.0,0.024610225854914576
1051.0,0.016432916449167705
1052.0,0.009636281465527148
1053.0,0.007853060949101263
1054.0,0.008377698192407409
1055.0,0.010031115952341187
1056.0,0.01012138381019895
1057.0,0.009728036125021258
1058.0,0.007111273351888518
1059.0,0.008135805695162347
1060.0,0.009449833874962767
1061.0,0.009697680829844417
1062.0,0.010581802241293289
1063.0,0.011619458509513065
1064.0,0.012536158921641368
1065.0,0.013498643154861134
1066.0,0.015129947175887943
1067.0,0.01672450643804897
1068.0,0.0164137489594273
1069.0,0.015668164441108155
1070.0,0.01292648129515098
1071.0,0.013536916190089317
1072.0,0.013013040994562316
1073.0,0.012387011167907908
1074.0,0.012562639317400467
1075.0,0.01274671833486905
1076.0,0.011309810756666051
1077.0,0.010097081645984789
1078.0,0.011204573508755122
1079.0,0.011411482301503946
1080.0,0.009438766235098192
1081.0,0.007086165471327356
1082.0,0.005043171524680272
1083.0,0.004092259166766511
1084.0,0.004171234011612506
1085.0,0.005456567729439866
1086.0,0.007539984526150097
1087.0,0.008657508036406145
1088.0,0.010562786694181031
1089.0,0.016432760687110595
1090.0,0.021388696257679474
1091.0,0.023138401371825826
1092.0,0.024494291150046685
1093.0,0.02517320620439812
1094.0,0.025498101540728145
1095.0,0.025105749306094077
1096.0,0.02360902972496882
1097.0,0.02319708871112135
1098.0,0.02202106042230325
1099.0,0.01921553844408809
1100.0,0.019693644756285673
1101.0,0.01903844615616079
1102.0,0.016110249935486442
1103.0,0.012625052617865326
1104.0,0.01153096650874609
1105.0,0.011510031677529368
1106.0,0.014746154399763229
1107.0,0.016241848383145824
1108.0,0.020611039995727564
1109.0,0.024857572871458934
1110.0,0.028035484694467074
1111.0,0.030752134203343728
1112.0,0.031247762863034535
1113.0,0.02995655278765849
1114.0,0.02819936799399535
1115.0,0.025955343264042963
1116.0,0.022784412478816882
1117.0,0.0196684920756773
1118.0,0.017125298462998456
1119.0,0.013141129653549063
1120.0,0.009777020329018482
1121.0,0.006375167752259299
1122.0,0.0028113099023937627
1123.0,0.0015176503095614955
1124.0,0.0
1125.0,0.0031450569635476985
1126.0,0.00479393566276585
1127.0,0.006959143129110364
1128.0,0.007941684016142963
1129.0,0.009293132676338179
1130.0,0.010053201606640983
1131.0,0.011236670057316493
1132.0,0.014851336817701111
1133.0,0.012740470709228305
1134.0,0.012219165584664397
1135.0,0.012819430308701252
1136.0,0.014153076071569367
1137.0,0.013358713710053398
1138.0,0.010961094853245491
1139.0,0.010995636084450557
1140.0,0.011447511925377879
1141.0,0.01383045597847946
1142.0,0.014839288629583352
1143.0,0.016687447378506345
1144.0,0.016620789674548185
1145.0,0.016178564270297624
1146.0,0.019461852103767153
1147.0,0.022692886186014918
1148.0,0.024510030604725556
1149.0,0.027739333021598336
1150.0,0.031585453045162346
1151.0,0.03635902221699891
1152.0,0.03918695017671871
1153.0,0.04093138022974998
1154.0,0.04015901285730879
1155.0,0.039257267049388415
1156.0,0.036792142717695576
1157.0,0.035518247484302864
1158.0,0.035855806490657935
1159.0,0.03584482732073115
1160.0,0.038306473932039474
1161.0,0.03843263467374094
1162.0,0.038625918552127825
1163.0,0.038125307406639636
1164.0,0.03700930933405478
1165.0,0.036127820015576344
1166.0,0.03223176709487729
1167.0,0.026753302495013974
1168.0,0.016039587046119585
